r(A) ,   X_ray-calc  ,   X_ray_exp_renorm
   2.31000000000000       ,   -1.72904700835471       ,   -1.87011517949948     
   2.32000000000000       ,   -1.79177782472561       ,   -1.84158907931861     
   2.33000000000000       ,   -1.80110930564856       ,   -1.76450443377470     
   2.34000000000000       ,   -1.74569444524707       ,   -1.62980883842168     
   2.35000000000000       ,   -1.61660872076372       ,   -1.43032072792170     
   2.36000000000000       ,   -1.40798441150318       ,   -1.16132011590864     
   2.37000000000000       ,   -1.11750381929948       ,  -0.821035240313786     
   2.38000000000000       ,  -0.746718212614399       ,  -0.410990252166825     
   2.39000000000000       ,  -0.301168445079361       ,   6.381388720614388E-002
   2.40000000000000       ,   0.209706021964048       ,   0.594904138184875     
   2.41000000000000       ,   0.772871145894961       ,    1.17053412201015     
   2.42000000000000       ,    1.37220466079249       ,    1.77607393650709     
   2.43000000000000       ,    1.98918224555881       ,    2.39457664142180     
   2.44000000000000       ,    2.60371025235952       ,    3.00749606894576     
   2.45000000000000       ,    3.19506274804471       ,    3.59552090441190     
   2.46000000000000       ,    3.74287391529598       ,    4.13948212369510     
   2.47000000000000       ,    4.22813287646378       ,    4.62128538949079     
   2.48000000000000       ,    4.63412701397256       ,    5.02481728240052     
   2.49000000000000       ,    4.94728196300014       ,    5.33677449444306     
   2.50000000000000       ,    5.15785155707868       ,    5.54736838162484     
   2.51000000000000       ,    5.26041884711301       ,    5.65086341257598     
   2.52000000000000       ,    5.25417945517906       ,    5.64591673736032     
   2.53000000000000       ,    5.14299039182489       ,    5.53569684922596     
   2.54000000000000       ,    4.93518037811547       ,    5.32777150494384     
   2.55000000000000       ,    4.64313092379629       ,    5.03376799400706     
   2.56000000000000       ,    4.28265015180072       ,    4.66882173900091     
   2.57000000000000       ,    3.87217288299785       ,    4.25084129961854     
   2.58000000000000       ,    3.43183012967150       ,    3.79962841439178     
   2.59000000000000       ,    2.98243832865253       ,    3.33590010827930     
   2.60000000000000       ,    2.54446295715292       ,    2.88026560952046     
   2.61000000000000       ,    2.13701236825864       ,    2.45221350412121     
   2.62000000000000       ,    1.77691569593921       ,    2.06916404152503     
   2.63000000000000       ,    1.47793363722638       ,    1.74563781397938     
   2.64000000000000       ,    1.25014312851551       ,    1.49258538031968     
   2.65000000000000       ,    1.09952686207757       ,    1.31691318677036     
   2.66000000000000       ,    1.02778683903427       ,    1.22122990205552     
   2.67000000000000       ,    1.03238842345852       ,    1.20382470170202     
   2.68000000000000       ,    1.10682839957680       ,    1.25887585660072     
   2.69000000000000       ,    1.24110809875857       ,    1.37687498678677     
   2.70000000000000       ,    1.42238147556651       ,    1.54524030139046     
   2.71000000000000       ,    1.63573871189536       ,    1.74908176636499     
   2.72000000000000       ,    1.86507903532837       ,    1.97207302463328     
   2.73000000000000       ,    2.09402232306538       ,    2.19737949927322     
   2.74000000000000       ,    2.30680792663909       ,    2.40858973138271     
   2.75000000000000       ,    2.48913101516503       ,    2.59059774733061     
   2.76000000000000       ,    2.62887143659414       ,    2.73038803212120     
   2.77000000000000       ,    2.71667731037595       ,    2.81768124030042     
   2.78000000000000       ,    2.74637481878116       ,    2.84540767201423     
   2.79000000000000       ,    2.71518637106246       ,    2.80998621175724     
   2.80000000000000       ,    2.62375081083511       ,    2.71139820337453     
   2.81000000000000       ,    2.47595092343829       ,    2.55305789191046     
   2.82000000000000       ,    2.27856448551301       ,    2.34149286397219     
   2.83000000000000       ,    2.04076484267402       ,    2.08585866030940     
   2.84000000000000       ,    1.77350495053858       ,    1.79732079113923     
   2.85000000000000       ,    1.48882453781162       ,    1.48834424472900     
   2.86000000000000       ,    1.19912326081114       ,    1.17193487567042     
   2.87000000000000       ,   0.916443289539336       ,   0.860878588669048     
   2.88000000000000       ,   0.651802733029001       ,   0.567022968480938     
   2.89000000000000       ,   0.414616871294937       ,   0.300642091688138     
   2.90000000000000       ,   0.212237650446618       ,   6.991899664656641E-002
   2.91000000000000       ,   4.963377231997027E-002  ,  -0.119427872370595     
   2.92000000000000       ,  -7.077548656006058E-002  ,  -0.264357441144954     
   2.93000000000000       ,  -0.149129265569505       ,  -0.364551434823538     
   2.94000000000000       ,  -0.187983002939544       ,  -0.422296209998968     
   2.95000000000000       ,  -0.192030126769057       ,  -0.442214493163423     
   2.96000000000000       ,  -0.167710071796568       ,  -0.430869134039004     
   2.97000000000000       ,  -0.122731083449767       ,  -0.396267938731558     
   2.98000000000000       ,  -6.554024592464364E-002  ,  -0.347303574053096     
   2.99000000000000       ,  -4.775000563564265E-003  ,  -0.293165188026597     
   3.00000000000000       ,   5.126993187798597E-002  ,  -0.242758680635337     
   3.01000000000000       ,   9.512874401087162E-002  ,  -0.204170544087191     
   3.02000000000000       ,   0.120576650458246       ,  -0.184206078640511     
   3.03000000000000       ,   0.122946504494502       ,  -0.188026911194189     
   3.04000000000000       ,   9.933539137311852E-002  ,  -0.218905534522324     
   3.05000000000000       ,   4.869415049488578E-002  ,  -0.278106551597155     
   3.06000000000000       ,  -2.819963101741766E-002  ,  -0.364895994525089     
   3.07000000000000       ,  -0.128877401737825       ,  -0.476672033707591     
   3.08000000000000       ,  -0.249410072443195       ,  -0.609203106849613     
   3.09000000000000       ,  -0.384713770923536       ,  -0.756953418602497     
   3.10000000000000       ,  -0.528907912757439       ,  -0.913471234727079     
   3.11000000000000       ,  -0.675700535206909       ,   -1.07181265028708     
   3.12000000000000       ,  -0.818775515794494       ,   -1.22497265434420     
   3.13000000000000       ,  -0.952157628711055       ,   -1.36629632009957     
   3.14000000000000       ,   -1.07053421561236       ,   -1.48984567280063     
   3.15000000000000       ,   -1.16951630458800       ,   -1.59070197253640     
   3.16000000000000       ,   -1.24582697221100       ,   -1.66518845182691     
   3.17000000000000       ,   -1.29741023172288       ,   -1.71100456345144     
   3.18000000000000       ,   -1.32345934910000       ,   -1.72726908490799     
   3.19000000000000       ,   -1.32436884971977       ,   -1.71447555372241     
   3.20000000000000       ,   -1.30161922793374       ,   -1.67436906293063     
   3.21000000000000       ,   -1.25760721413196       ,   -1.60975807497992     
   3.22000000000000       ,   -1.19543716908567       ,   -1.52427834023837     
   3.23000000000000       ,   -1.11869063242484       ,   -1.42212805352018     
   3.24000000000000       ,   -1.03119121463586       ,   -1.30779397310871     
   3.25000000000000       ,  -0.936780947321645       ,   -1.18578739229496     
   3.26000000000000       ,  -0.839122038319261       ,   -1.06040672426396     
   3.27000000000000       ,  -0.741534933232088       ,  -0.935540255564752     
   3.28000000000000       ,  -0.646879934387932       ,  -0.814518628617834     
   3.29000000000000       ,  -0.557485676793549       ,  -0.700022162939537     
   3.30000000000000       ,  -0.475123822813288       ,  -0.594043571520672     
   3.31000000000000       ,  -0.401025714036382       ,  -0.497902320564324     
   3.32000000000000       ,  -0.335933675777956       ,  -0.412303133719934     
   3.33000000000000       ,  -0.280177418572421       ,  -0.337428218538245     
   3.34000000000000       ,  -0.233764665326921       ,  -0.273050884044689     
   3.35000000000000       ,  -0.196474818846695       ,  -0.218657431226527     
   3.36000000000000       ,  -0.167945158427948       ,  -0.173564550388202     
   3.37000000000000       ,  -0.147740625195418       ,  -0.137020879605990     
   3.38000000000000       ,  -0.135400564406058       ,  -0.108283714531460     
   3.39000000000000       ,  -0.130458624716451       ,  -8.666489127821780E-002
   3.40000000000000       ,  -0.132435117656408       ,  -7.154332103978832E-002
   3.41000000000000       ,  -0.140804246059788       ,  -6.234523916703521E-002
   3.42000000000000       ,  -0.154941452348626       ,  -5.849663951662206E-002
   3.43000000000000       ,  -0.174058474782786       ,  -5.935531225383370E-002
   3.44000000000000       ,  -0.197135333025016       ,  -6.413214537300710E-002
   3.45000000000000       ,  -0.222859252177242       ,  -7.181270096384706E-002
   3.46000000000000       ,  -0.249580403593543       ,  -8.109042308882913E-002
   3.47000000000000       ,  -0.275293291707010       ,  -9.032214213995586E-002
   3.48000000000000       ,  -0.297650722797938       ,  -9.751486069555122E-002
   3.49000000000000       ,  -0.314014695951764       ,  -0.100350267020043     
   3.50000000000000       ,  -0.321545457457352       ,  -9.625022215492210E-002
   3.51000000000000       ,  -0.317326598826302       ,  -8.248285656752845E-002
   3.52000000000000       ,  -0.298520720774853       ,  -5.630517883053672E-002
   3.53000000000000       ,  -0.262547100306164       ,  -1.513454116171791E-002
   3.54000000000000       ,  -0.207270238652738       ,   4.326178533037565E-002
   3.55000000000000       ,  -0.131186352074796       ,   0.120572040889270     
   3.56000000000000       ,  -3.359396108006522E-002  ,   0.217754965062054     
   3.57000000000000       ,   8.526516274695035E-002  ,   0.334879260712024     
   3.58000000000000       ,   0.224107291977401       ,   0.471001686094701     
   3.59000000000000       ,   0.380560750405756       ,   0.624096050279071     
   3.60000000000000       ,   0.551180105519349       ,   0.791042505242142     
   3.61000000000000       ,   0.731524345676854       ,   0.967682822218034     
   3.62000000000000       ,   0.916298730376616       ,    1.14894305578337     
   3.63000000000000       ,    1.09955573233960       ,    1.32902042914587     
   3.64000000000000       ,    1.27494635691153       ,    1.50162673710395     
   3.65000000000000       ,    1.43600941919724       ,    1.66027638203382     
   3.66000000000000       ,    1.57648334998260       ,    1.79860363686992     
   3.67000000000000       ,    1.69062301230550       ,    1.91069113035696     
   3.68000000000000       ,    1.77350300656541       ,    1.99139007695468     
   3.69000000000000       ,    1.82128911682223       ,    2.03661255488264     
   3.70000000000000       ,    1.83146091912375       ,    2.04357721445506     
   3.71000000000000       ,    1.80297106832485       ,    2.01099213002075     
   3.72000000000000       ,    1.73633025995801       ,    1.93916196106864     
   3.73000000000000       ,    1.63361111736557       ,    1.83001095183006     
   3.74000000000000       ,    1.49836901637823       ,    1.68701830003661     
   3.75000000000000       ,    1.33548282848607       ,    1.51506774420963     
   3.76000000000000       ,    1.15092342024100       ,    1.32021851009585     
   3.77000000000000       ,   0.951462177761163       ,    1.10940967431435     
   3.78000000000000       ,   0.744335542579032       ,   0.890114222639839     
   3.79000000000000       ,   0.536884305612240       ,   0.669962321317832     
   3.80000000000000       ,   0.336188028011437       ,   0.456355365139900     
   3.81000000000000       ,   0.148715332872115       ,   0.256093076288572     
   3.82000000000000       ,  -1.999008709864367E-002  ,   7.503525112065938E-002
   3.83000000000000       ,  -0.165570018656830       ,  -8.218227303654797E-002
   3.84000000000000       ,  -0.285044309077385       ,  -0.212361105106679     
   3.85000000000000       ,  -0.376925037682093       ,  -0.313871175551258     
   3.86000000000000       ,  -0.441246539971203       ,  -0.386691934646830     
   3.87000000000000       ,  -0.479510571274039       ,  -0.432362229695986     
   3.88000000000000       ,  -0.494550924446620       ,  -0.453842711341506     
   3.89000000000000       ,  -0.490326530234423       ,  -0.455299836543303     
   3.90000000000000       ,  -0.471656175856680       ,  -0.441825146390109     
   3.91000000000000       ,  -0.443911225359604       ,  -0.419107212638188     
   3.92000000000000       ,  -0.412684920534982       ,  -0.393076240187714     
   3.93000000000000       ,  -0.383457860083332       ,  -0.369542631297421     
   3.94000000000000       ,  -0.361279051138964       ,  -0.353850793471697     
   3.95000000000000       ,  -0.350480534865410       ,  -0.350568127157518     
   3.96000000000000       ,  -0.354441116635539       ,  -0.363226568136886     
   3.97000000000000       ,  -0.375411359571632       ,  -0.394130467157106     
   3.98000000000000       ,  -0.414407961610199       ,  -0.444240214946186     
   3.99000000000000       ,  -0.471181203582980       ,  -0.513136160608709     
   4.00000000000000       ,  -0.544254622306140       ,  -0.599062348639129     
   4.01000000000000       ,  -0.631031722189406       ,  -0.699044742468941     
   4.02000000000000       ,  -0.727960666290521       ,  -0.809074221509406     
   4.03000000000000       ,  -0.830744720946473       ,  -0.924341007316909     
   4.04000000000000       ,  -0.934583952797228       ,   -1.03950451065265     
   4.05000000000000       ,   -1.03443241519224       ,   -1.14898104358890     
   4.06000000000000       ,   -1.12525486401849       ,   -1.24723148028207     
   4.07000000000000       ,   -1.20226788962138       ,   -1.32903176616504     
   4.08000000000000       ,   -1.26115215069364       ,   -1.38971107865448     
   4.09000000000000       ,   -1.29822499470440       ,   -1.42534527214598     
   4.10000000000000       ,   -1.31056594426541       ,   -1.43289677617219     
   4.11000000000000       ,   -1.29609108116151       ,   -1.41029609543251     
   4.12000000000000       ,   -1.25357601291606       ,   -1.35646419741897     
   4.13000000000000       ,   -1.18263060409914       ,   -1.27127907742548     
   4.14000000000000       ,   -1.08363175737794       ,   -1.15549338829504     
   4.15000000000000       ,  -0.957623032955359       ,   -1.01061297507691     
   4.16000000000000       ,  -0.806191642681978       ,  -0.838748275796234     
   4.17000000000000       ,  -0.631334247654806       ,  -0.642451715054767     
   4.18000000000000       ,  -0.435322990003006       ,  -0.424554374230747     
   4.19000000000000       ,  -0.220582330086364       ,  -0.188014390828714     
   4.20000000000000       ,   1.041436974539641E-002  ,   6.421218939982239E-002
   4.21000000000000       ,   0.255221829768538       ,   0.329269857407361     
   4.22000000000000       ,   0.511469415784052       ,   0.604466146927982     
   4.23000000000000       ,   0.776876208606335       ,   0.887296281756806     
   4.24000000000000       ,    1.04923642245518       ,    1.17543140573870     
   4.25000000000000       ,    1.32637970065112       ,    1.46667498868779     
   4.26000000000000       ,    1.60611307206931       ,    1.75889470795820     
   4.27000000000000       ,    1.88615300760937       ,    2.04993916755768     
   4.28000000000000       ,    2.16405695095425       ,    2.33755008574474     
   4.29000000000000       ,    2.43716384561529       ,    2.61928096969958     
   4.30000000000000       ,    2.70255253351409       ,    2.89243278008618     
   4.31000000000000       ,    2.95702551130306       ,    3.15401571431536     
   4.32000000000000       ,    3.19712350653332       ,    3.40074411358801     
   4.33000000000000       ,    3.41917383084472       ,    3.62906878880943     
   4.34000000000000       ,    3.61937267124479       ,    3.83524797038399     
   4.35000000000000       ,    3.79389860447894       ,    4.01545485038684     
   4.36000000000000       ,    3.93905188083403       ,    4.16591654674302     
   4.37000000000000       ,    4.05141163023929       ,    4.28307651462632     
   4.38000000000000       ,    4.12800127842417       ,    4.36377017275653     
   4.39000000000000       ,    4.16645126961909       ,    4.40540197446647     
   4.40000000000000       ,    4.16514777211936       ,    4.40611145622404     
   4.41000000000000       ,    4.12335643611854       ,    4.36491600011031     
   4.42000000000000       ,    4.04131146352160       ,    4.28181914718936     
   4.43000000000000       ,    3.92026216385975       ,    4.15787522699766     
   4.44000000000000       ,    3.76247168388104       ,    3.99520369632973     
   4.45000000000000       ,    3.57116554264198       ,    3.79694972959444     
   4.46000000000000       ,    3.35043077935117       ,    3.56719105710144     
   4.47000000000000       ,    3.10506971078908       ,    3.31079456816803     
   4.48000000000000       ,    2.84041527957843       ,    3.03322953877970     
   4.49000000000000       ,    2.56211754769415       ,    2.74034727611407     
   4.50000000000000       ,    2.27591287256290       ,    2.43813928978451     
   4.51000000000000       ,    1.98738855691103       ,    2.13248763951296     
   4.52000000000000       ,    1.70175619860051       ,    1.82892176181145     
   4.53000000000000       ,    1.42364654907091       ,    1.53239579575772     
   4.54000000000000       ,    1.15693744260692       ,    1.24709922586923     
   4.55000000000000       ,   0.904624363607594       ,   0.976311617139789     
   4.56000000000000       ,   0.668740606113401       ,   0.722309469600689     
   4.57000000000000       ,   0.450330921434392       ,   0.486329951250405     
   4.58000000000000       ,   0.249479247959191       ,   0.268592697855456     
   4.59000000000000       ,   6.538779017562341E-002  ,   6.837723485386331E-002
   4.60000000000000       ,  -0.103498419284251       ,  -0.115849877276022     
   4.61000000000000       ,  -0.259330074839686       ,  -0.286267118100693     
   4.62000000000000       ,  -0.404666027949918       ,  -0.445500682964428     
   4.63000000000000       ,  -0.542271791822660       ,  -0.596410808689358     
   4.64000000000000       ,  -0.674916958754115       ,  -0.741875595228035     
   4.65000000000000       ,  -0.805184166511375       ,  -0.884586047812534     
   4.66000000000000       ,  -0.935301230471151       ,   -1.02686504131989     
   4.67000000000000       ,   -1.06700629616345       ,   -1.17052106186548     
   4.68000000000000       ,   -1.20145348726132       ,   -1.31674504257076     
   4.69000000000000       ,   -1.33916369191866       ,   -1.46605555911926     
   4.70000000000000       ,   -1.48002203940077       ,   -1.61829429725121     
   4.71000000000000       ,   -1.62332047828138       ,   -1.77267027827714     
   4.72000000000000       ,   -1.76784088733800       ,   -1.92784806212607     
   4.73000000000000       ,   -1.91197152786714       ,   -2.08207225926418     
   4.74000000000000       ,   -2.05384755244770       ,   -2.23331836388913     
   4.75000000000000       ,   -2.19150485372282       ,   -2.37945832126076     
   4.76000000000000       ,   -2.32303585498511       ,   -2.51842846146548     
