Q or theta , Calculated , Experiment
   1.00050100000000       ,    25.1892936578451       ,    35.7000000000000     
   1.01318200000000       ,    26.5608240857243       ,    35.1500000000000     
   1.02586200000000       ,    27.6347894648776       ,    35.1200000000000     
   1.03854200000000       ,    28.7246495798290       ,    35.3700000000000     
   1.05122300000000       ,    29.8313190644318       ,    35.7500000000000     
   1.06390300000000       ,    30.9555581480122       ,    36.0000000000000     
   1.07658400000000       ,    32.0986056052474       ,    36.4300000000000     
   1.08926400000000       ,    33.2614887641234       ,    36.8300000000000     
   1.10194500000000       ,    34.4457672266300       ,    37.1200000000000     
   1.11462500000000       ,    35.6528248537616       ,    37.1800000000000     
   1.12730600000000       ,    36.8846549062940       ,    38.1400000000000     
   1.13998600000000       ,    38.1431131909455       ,    38.4500000000000     
   1.15266600000000       ,    39.4306735281133       ,    39.6500000000000     
   1.16534700000000       ,    40.7501771160047       ,    40.7300000000000     
   1.17802800000000       ,    42.1046844047011       ,    41.4500000000000     
   1.19070800000000       ,    43.4977360628196       ,    42.2300000000000     
   1.20338900000000       ,    44.9337697712464       ,    43.2900000000000     
   1.21606900000000       ,    46.4174325292806       ,    44.7500000000000     
   1.22875000000000       ,    47.9545885461028       ,    46.8000000000000     
   1.24143000000000       ,    49.5515465069568       ,    48.4400000000000     
   1.25411100000000       ,    51.2162332884784       ,    50.6300000000000     
   1.26679200000000       ,    52.9576508669190       ,    53.0900000000000     
   1.27947200000000       ,    54.7866298722780       ,    56.0000000000000     
   1.29215300000000       ,    56.7170280885292       ,    59.1600000000000     
   1.30483400000000       ,    58.7661822547322       ,    63.0000000000000     
   1.31751400000000       ,    60.9582190876362       ,    67.6100000000000     
   1.33019500000000       ,    63.3317352462528       ,    74.7400000000000     
   1.34287600000000       ,    65.9564326941116       ,    81.9500000000000     
   1.35555700000000       ,    68.9760869019027       ,    90.7500000000000     
   1.36823700000000       ,    72.7031179443179       ,    101.310000000000     
   1.38091800000000       ,    78.5054232274433       ,    120.960000000000     
   1.39359900000000       ,    86.4373183089648       ,    142.540000000000     
   1.40628000000000       ,    100.007297793025       ,    170.740000000000     
   1.41896100000000       ,    124.450362304901       ,    205.880000000000     
   1.43164100000000       ,    168.746299068695       ,    275.280000000000     
   1.44432200000000       ,    247.056415562904       ,    365.330000000000     
   1.45700300000000       ,    379.613220422861       ,    485.320000000000     
   1.46968400000000       ,    592.172409058438       ,    636.400000000000     
   1.48236500000000       ,    912.883698346772       ,    931.520000000000     
   1.49504600000000       ,    1365.87739149186       ,    1402.24000000000     
   1.50772700000000       ,    1961.93861084521       ,    1920.01000000000     
   1.52040800000000       ,    2688.28434677587       ,    2572.85000000000     
   1.53308900000000       ,    3500.97316813376       ,    3413.95000000000     
   1.54577000000000       ,    4323.88125744664       ,    4469.66000000000     
   1.55845100000000       ,    5056.84259640518       ,    5344.86000000000     
   1.57113200000000       ,    5593.06428774339       ,    5926.81000000000     
   1.58381300000000       ,    5843.64828722296       ,    6127.49000000000     
   1.59649400000000       ,    5763.73183934760       ,    6052.28000000000     
   1.60917500000000       ,    5368.35558065243       ,    5601.20000000000     
   1.62185600000000       ,    4726.99395098363       ,    4906.65000000000     
   1.63453700000000       ,    3940.94595558881       ,    4098.89000000000     
   1.64721900000000       ,    3117.03860075044       ,    3034.39000000000     
   1.65990000000000       ,    2346.65786653116       ,    2237.36000000000     
   1.67258100000000       ,    1692.65045639085       ,    1613.73000000000     
   1.68526200000000       ,    1186.48516090420       ,    1218.28000000000     
   1.69794300000000       ,    833.191732378192       ,    917.530000000000     
   1.71062500000000       ,    620.684827431374       ,    724.800000000000     
   1.72330600000000       ,    529.471200257852       ,    641.810000000000     
   1.73598700000000       ,    539.123904068095       ,    637.900000000000     
   1.74866900000000       ,    630.874683024613       ,    685.540000000000     
   1.76135000000000       ,    786.541782342499       ,    820.930000000000     
   1.77403100000000       ,    985.864718414332       ,    966.050000000000     
   1.78671300000000       ,    1204.22339532290       ,    1162.17000000000     
   1.79939400000000       ,    1412.38609908281       ,    1329.26000000000     
   1.81207600000000       ,    1579.22529760981       ,    1519.84000000000     
   1.82475700000000       ,    1676.78827645042       ,    1620.56000000000     
   1.83743900000000       ,    1687.18117556727       ,    1616.77000000000     
   1.85012000000000       ,    1608.18127950296       ,    1538.85000000000     
   1.86280200000000       ,    1453.86386192364       ,    1351.30000000000     
   1.87548300000000       ,    1249.55267272272       ,    1141.90000000000     
   1.88816500000000       ,    1024.40334053683       ,    923.120000000000     
   1.90084600000000       ,    805.061910694424       ,    723.970000000000     
   1.91352800000000       ,    611.161763309974       ,    527.980000000000     
   1.92621000000000       ,    453.591958292222       ,    383.430000000000     
   1.93889100000000       ,    334.972954527433       ,    284.600000000000     
   1.95157300000000       ,    251.821916455748       ,    227.900000000000     
   1.96425500000000       ,    197.376092113231       ,    185.090000000000     
   1.97693600000000       ,    164.000804218514       ,    153.420000000000     
   1.98961800000000       ,    144.827512041266       ,    136.320000000000     
   2.00230000000000       ,    134.526019689489       ,    124.910000000000     
   2.01498200000000       ,    129.398866105621       ,    116.960000000000     
   2.02766400000000       ,    127.112850461477       ,    109.910000000000     
   2.04034600000000       ,    126.314082866162       ,    104.670000000000     
   2.05302700000000       ,    126.273401701293       ,    100.630000000000     
   2.06570900000000       ,    126.623117885134       ,    97.7800000000000     
   2.07839100000000       ,    127.187585435576       ,    95.2900000000000     
   2.09107300000000       ,    127.885804347796       ,    93.4900000000000     
   2.10375500000000       ,    128.680503935124       ,    92.2600000000000     
   2.11643700000000       ,    129.553654746618       ,    91.5000000000000     
   2.12911900000000       ,    130.495499360584       ,    91.2500000000000     
   2.14180100000000       ,    131.499897424801       ,    91.6200000000000     
   2.15448300000000       ,    132.562433974993       ,    92.1200000000000     
   2.16716600000000       ,    133.679714013017       ,    92.9500000000000     
   2.17984800000000       ,    134.848665559310       ,    95.1000000000000     
   2.19253000000000       ,    136.066912670813       ,    98.0300000000000     
   2.20521200000000       ,    137.349753749943       ,    101.010000000000     
   2.21789400000000       ,    138.661133695598       ,    104.750000000000     
   2.23057700000000       ,    140.017617089296       ,    108.450000000000     
   2.24325900000000       ,    141.419300888691       ,    113.110000000000     
   2.25594100000000       ,    142.868042904050       ,    116.500000000000     
   2.26862400000000       ,    144.511109534921       ,    119.000000000000     
   2.28130600000000       ,    146.066964676136       ,    120.540000000000     
   2.29398800000000       ,    147.685203751602       ,    121.870000000000     
   2.30667100000000       ,    149.374377742965       ,    122.580000000000     
   2.31935300000000       ,    151.144973632632       ,    123.390000000000     
   2.33203600000000       ,    153.012336224601       ,    124.260000000000     
   2.34471800000000       ,    155.000577029982       ,    126.640000000000     
   2.35740100000000       ,    157.155611084904       ,    130.000000000000     
   2.37008300000000       ,    159.570130248258       ,    134.460000000000     
   2.38276600000000       ,    162.438977297725       ,    140.060000000000     
   2.39544800000000       ,    166.160024264759       ,    148.200000000000     
   2.40813100000000       ,    171.513184083062       ,    159.370000000000     
   2.42081400000000       ,    179.932122149463       ,    171.360000000000     
   2.43349700000000       ,    193.872003159088       ,    187.010000000000     
   2.44617900000000       ,    217.205325034478       ,    210.070000000000     
   2.45886200000000       ,    255.507919460383       ,    245.900000000000     
   2.47154500000000       ,    315.955195858637       ,    287.830000000000     
   2.48422800000000       ,    406.563989000638       ,    355.340000000000     
   2.49691100000000       ,    534.537884034989       ,    446.780000000000     
   2.50959300000000       ,    703.760474061883       ,    612.650000000000     
   2.52227600000000       ,    911.996568523273       ,    794.580000000000     
   2.53495900000000       ,    1148.48354265347       ,    1007.63000000000     
   2.54764200000000       ,    1393.41349471170       ,    1221.15000000000     
   2.56032500000000       ,    1618.76038787404       ,    1486.29000000000     
   2.57300800000000       ,    1793.53744337312       ,    1665.40000000000     
   2.58569100000000       ,    1889.59092056140       ,    1782.30000000000     
   2.59837500000000       ,    1889.86489170894       ,    1769.02000000000     
   2.61105800000000       ,    1794.70989037816       ,    1668.48000000000     
   2.62374100000000       ,    1621.74393414032       ,    1482.88000000000     
   2.63642400000000       ,    1399.38694485255       ,    1264.27000000000     
   2.64910700000000       ,    1158.79994093435       ,    1045.00000000000     
   2.66179100000000       ,    927.412644183940       ,    825.790000000000     
   2.67447400000000       ,    724.947886828643       ,    621.060000000000     
   2.68715700000000       ,    561.818967567229       ,    495.690000000000     
   2.69984100000000       ,    440.027352883819       ,    402.360000000000     
   2.71252400000000       ,    355.546186649541       ,    345.430000000000     
   2.72520700000000       ,    301.120390113540       ,    302.150000000000     
   2.73789100000000       ,    268.849625902670       ,    277.450000000000     
   2.75057400000000       ,    251.504879338225       ,    263.550000000000     
   2.76325800000000       ,    243.704176057753       ,    257.910000000000     
   2.77594200000000       ,    241.707455842367       ,    257.410000000000     
   2.78862500000000       ,    243.218260221719       ,    262.720000000000     
   2.80130900000000       ,    247.038899297645       ,    271.390000000000     
   2.81399200000000       ,    252.778019315031       ,    284.570000000000     
   2.82667600000000       ,    260.833736767160       ,    306.300000000000     
   2.83936000000000       ,    272.593337477062       ,    334.000000000000     
   2.85204400000000       ,    291.052179299122       ,    366.310000000000     
   2.86472700000000       ,    321.881861433087       ,    415.010000000000     
   2.87741100000000       ,    374.972931074526       ,    480.430000000000     
   2.89009500000000       ,    466.200400985083       ,    586.880000000000     
   2.90277900000000       ,    618.877429038850       ,    720.230000000000     
   2.91546300000000       ,    863.846050015229       ,    919.200000000000     
   2.92814700000000       ,    1236.90824283033       ,    1203.68000000000     
   2.94083100000000       ,    1772.48917103710       ,    1735.34000000000     
   2.95351500000000       ,    2493.41491245294       ,    2322.73000000000     
   2.96619900000000       ,    3398.43955739036       ,    3180.18000000000     
   2.97888300000000       ,    4451.09703623996       ,    4194.94000000000     
   2.99156800000000       ,    5574.59627071257       ,    5557.86000000000     
   3.00425200000000       ,    6656.06979108733       ,    6733.74000000000     
   3.01693600000000       ,    7563.13569001096       ,    7720.91000000000     
   3.02962000000000       ,    8170.88809975740       ,    8292.36000000000     
   3.04230500000000       ,    8398.74713423192       ,    8609.85000000000     
   3.05498900000000       ,    8244.69085936905       ,    8345.60000000000     
   3.06767300000000       ,    7791.62445664878       ,    7821.42000000000     
   3.08035800000000       ,    7179.22307189843       ,    7117.24000000000     
   3.09304200000000       ,    6558.80251412096       ,    6344.48000000000     
   3.10572700000000       ,    6053.56554133033       ,    5729.65000000000     
   3.11841100000000       ,    5732.03053520109       ,    5416.35000000000     
   3.13109600000000       ,    5596.49780300153       ,    5400.09000000000     
   3.14378100000000       ,    5588.92521277902       ,    5519.21000000000     
   3.15646500000000       ,    5611.24256453272       ,    5722.99000000000     
   3.16915000000000       ,    5556.23148902664       ,    5744.51000000000     
   3.18183500000000       ,    5342.47860760617       ,    5551.92000000000     
   3.19451900000000       ,    4940.56007975958       ,    5163.48000000000     
   3.20720400000000       ,    4375.46996012070       ,    4441.07000000000     
   3.21988900000000       ,    3708.26968609358       ,    3733.99000000000     
   3.23257400000000       ,    3012.44891741856       ,    2973.45000000000     
   3.24525900000000       ,    2354.63776580600       ,    2362.07000000000     
   3.25794400000000       ,    1783.34555656149       ,    1744.33000000000     
   3.27062900000000       ,    1323.69915517508       ,    1302.55000000000     
   3.28331400000000       ,    979.226799178562       ,    1009.76000000000     
   3.29599900000000       ,    737.837099505853       ,    840.050000000000     
   3.30868400000000       ,    579.241719731101       ,    697.790000000000     
   3.32136900000000       ,    481.422876281349       ,    601.940000000000     
   3.33405500000000       ,    424.887504178927       ,    545.730000000000     
   3.34674000000000       ,    394.607854892919       ,    506.830000000000     
   3.35942500000000       ,    380.174820337150       ,    484.100000000000     
   3.37211000000000       ,    375.039394592181       ,    470.820000000000     
   3.38479600000000       ,    375.432569264749       ,    466.750000000000     
   3.39748100000000       ,    379.395335123677       ,    471.430000000000     
   3.41016700000000       ,    386.086093348235       ,    482.740000000000     
   3.42285200000000       ,    395.397204363656       ,    503.740000000000     
   3.43553800000000       ,    407.893441618007       ,    532.670000000000     
   3.44822300000000       ,    425.102256695236       ,    570.480000000000     
   3.46090900000000       ,    450.317721147244       ,    620.960000000000     
   3.47359500000000       ,    490.121149086451       ,    706.060000000000     
   3.48628000000000       ,    556.912627841222       ,    814.640000000000     
   3.49896600000000       ,    672.606914094416       ,    954.260000000000     
   3.51165200000000       ,    873.118210275972       ,    1165.59000000000     
   3.52433800000000       ,    1212.72157884048       ,    1490.74000000000     
   3.53702400000000       ,    1765.27284738939       ,    1985.85000000000     
   3.54971000000000       ,    2620.91557269189       ,    2654.34000000000     
   3.56239600000000       ,    3872.70734818268       ,    3643.47000000000     
   3.57508200000000       ,    5593.52423133253       ,    5077.34000000000     
   3.58776800000000       ,    7804.92053871189       ,    7387.30000000000     
   3.60045400000000       ,    10445.3472969389       ,    9940.86000000000     
   3.61314000000000       ,    13348.6415125000       ,    13019.5800000000     
   3.62582600000000       ,    16243.3810554884       ,    16167.8800000000     
   3.63851200000000       ,    18779.2061374753       ,    19418.9900000000     
   3.65119900000000       ,    20582.4636345795       ,    21436.0500000000     
   3.66388500000000       ,    21342.3310262013       ,    22349.1900000000     
   3.67657100000000       ,    20914.8264253802       ,    21831.0300000000     
   3.68925800000000       ,    19382.4789122622       ,    20057.2600000000     
   3.70194400000000       ,    17019.3988899742       ,    17217.8800000000     
   3.71463100000000       ,    14191.1655625637       ,    14237.9900000000     
   3.72731700000000       ,    11262.2514496475       ,    11180.5600000000     
   3.74000400000000       ,    8529.82934219355       ,    8021.73000000000     
   3.75269100000000       ,    6191.09379551602       ,    5679.92000000000     
   3.76537700000000       ,    4335.87793788901       ,    4073.69000000000     
   3.77806400000000       ,    2963.06215967741       ,    2980.08000000000     
   3.79075100000000       ,    2011.66891027761       ,    2228.43000000000     
   3.80343800000000       ,    1392.81901378239       ,    1667.91000000000     
   3.81612400000000       ,    1016.30380901163       ,    1347.49000000000     
   3.82881100000000       ,    806.963512132315       ,    1144.83000000000     
   3.84149800000000       ,    711.906531839477       ,    1018.52000000000     
   3.85418500000000       ,    700.680966273081       ,    951.040000000000     
   3.86687200000000       ,    761.760937208906       ,    949.970000000000     
   3.87956000000000       ,    897.119648503858       ,    1001.69000000000     
   3.89224700000000       ,    1115.71541621088       ,    1146.51000000000     
   3.90493400000000       ,    1426.34855886130       ,    1391.36000000000     
   3.91762100000000       ,    1830.12774635856       ,    1743.08000000000     
   3.93030800000000       ,    2313.79616021230       ,    2172.91000000000     
   3.94299600000000       ,    2845.59758837659       ,    2664.43000000000     
   3.95568300000000       ,    3375.04217788891       ,    3246.15000000000     
   3.96837100000000       ,    3838.39058289978       ,    3758.36000000000     
   3.98105800000000       ,    4167.45802191281       ,    4078.57000000000     
   3.99374600000000       ,    4307.72903285708       ,    4216.64000000000     
   4.00643300000000       ,    4235.98610540137       ,    4131.22000000000     
   4.01912100000000       ,    3970.68979420144       ,    3833.66000000000     
   4.03180900000000       ,    3563.54483476654       ,    3431.59000000000     
   4.04449600000000       ,    3080.27834213875       ,    2929.99000000000     
   4.05718400000000       ,    2583.26226800521       ,    2430.76000000000     
   4.06987200000000       ,    2120.83884413544       ,    1939.84000000000     
   4.08256000000000       ,    1722.15017863631       ,    1599.97000000000     
   4.09524800000000       ,    1397.58932232440       ,    1335.21000000000     
   4.10793600000000       ,    1143.61726225485       ,    1141.49000000000     
